"","arrayId","source","sampleName","arrayType","tumorType","location","tsne_x","tsne_y","umap_x","umap_y","conversion","good_score1"
"1","203168670112_R01C01","Benhamida","PB1","EPIC","PB","primary",-14.2100285005589,-3.7953212731181,3.02475643213251,-1.56063131583631,1.07675114443542,"good"
"2","203175700063_R01C01","Benhamida","ACC1","EPIC","ACC","primary",-16.9837779325496,-5.68797358196161,3.24935568063919,-1.61797140962457,1.1132890044658,"good"
"3","203175700063_R02C01","Benhamida","ACC2","EPIC","ACC","primary",-15.5462745852993,-4.46172512021461,3.41870921528751,-1.8142803404119,1.35859171480592,"good"
"4","203175700063_R03C01","Benhamida","ACC3","EPIC","ACC","primary",-20.3551094670279,-4.6196097484755,4.15962123959931,-2.60269403634985,1.24962041305416,"good"
"5","203175700063_R04C01","Benhamida","ACC4","EPIC","ACC","primary",-15.7950428002756,-2.59212636706798,3.19130928028147,-1.95636506783493,1.30743179892569,"good"
"6","203175700063_R05C01","Benhamida","ACC5","EPIC","ACC","primary",-19.0819502479529,-3.79696389437261,3.94265889923878,-2.99564665036189,1.21932915953177,"good"
"7","203175700063_R08C01","Benhamida","ACC6","EPIC","ACC","primary",-12.3450341549385,-2.49504864572048,3.37875839543725,-3.02148650119061,1.29694416396002,"good"
"8","203197470021_R03C01","Benhamida","ACC7","EPIC","ACC","primary",-15.936293517021,-5.23921112305887,3.15995029932902,-1.87318543433134,1.17008405367147,"good"
"9","203197470021_R05C01","Benhamida","PB2","EPIC","PB","primary",-2.96489554271426,1.88187404509317,2.11786113490057,-0.913257521062762,1.03749651813909,"good"
"10","203197470021_R06C01","Benhamida","PB3","EPIC","PB","primary",-3.3760951363626,1.58439954139241,2.24962049785565,-0.914049246284674,1.05885181035066,"good"
"11","203197470021_R07C01","Benhamida","PB4","EPIC","PB","primary",-15.325700961336,-4.1322467950714,3.13707107908754,-1.6604361897799,1.24816044291223,"good"
"12","203197470021_R08C01","Benhamida","PB5","EPIC","PB","primary",-13.3082292406293,-5.61130794057891,2.39921623344638,-1.5144251391351,1.13802957424823,"good"
"13","203168670117_R02C01","Benhamida","PB6","EPIC","PB","primary",-5.63677064373505,-1.26881906347853,2.64270845178908,-1.46445551791954,1.13777214793802,"good"
"14","203168670117_R03C01","Benhamida","PB7","EPIC","PB","primary",-17.0312214566294,-3.15953615726025,3.06189553805294,-1.91910195106612,1.26914108699942,"good"
"15","203168670117_R04C01","Benhamida","PB8","EPIC","PB","primary",-15.0844518355012,-4.01410781392655,3.08490537021986,-1.96352957613033,1.15827836645391,"good"
"16","203168670117_R05C01","Benhamida","PB9","EPIC","PB","primary",-15.3159123988729,-3.68654867521422,3.04125707056221,-1.93266283430351,1.26338520499447,"good"
"17","203584330069_R02C01","Benhamida","PB10","EPIC","PB","primary",-14.5770631171288,-5.42350380401898,2.72146203769809,-1.63861107106937,1.16141886026277,"good"
"18","203584330069_R03C01","Benhamida","PB11","EPIC","PB","primary",-14.2742682548412,-5.9331336003174,2.47689847981827,-1.49316823063955,0.944999686980019,"medium"
"19","203584330069_R04C01","Benhamida","PB12","EPIC","PB","primary",-17.6022382228752,-4.40343060296653,3.45737598936402,-2.48143500757093,1.23961218875152,"good"
"20","203584330069_R05C01","Benhamida","PB13","EPIC","PB","primary",-19.2433724418866,-5.38671887822517,4.07425566334394,-3.29754364702522,1.26500192662628,"good"
"21","203584330069_R06C01","Benhamida","PB14","EPIC","PB","primary",-13.5248327979311,-4.09326057238848,2.67701685252378,-1.50836304576731,1.18513060533138,"good"
"22","203584330069_R07C01","Benhamida","PB15","EPIC","PB","primary",-3.06238614548257,1.71782773694659,2.26213454964064,-0.957382414734018,1.22218473461495,"good"
"23","203584330069_R08C01","Benhamida","PB16","EPIC","PB","primary",-5.00950379713075,-1.60814746755213,2.58097296804961,-1.3681601960999,1.28673323020625,"good"
"24","9373550141_R01C01","Chan","A_mk11","Illumina_450K","PanNET","primary",6.75169706384812,-0.299887149898231,-1.24475688768124,1.07843314489772,1.34052795783533,"good"
"25","9934398017_R04C02","Chan","A_mk4","Illumina_450K","PanNET","primary",17.4017674529331,-5.89503276582749,-2.34362704195969,4.0311274009336,1.27542356534111,"good"
"26","9373550141_R06C02","Chan","A_mk47","Illumina_450K","PanNET","primary",16.6023772818623,-8.01552804847292,-2.66798246991175,2.95004729105357,1.28510115107061,"good"
"27","9373550141_R02C02","Chan","AM1_mk36","Illumina_450K","PanNET","primary",19.9680446377789,-10.018253385908,-2.77379055318402,3.46281638404607,1.27033982834104,"good"
"28","9934398017_R04C01","Chan","D_LS21","Illumina_450K","PanNET","primary",18.8800519768427,-7.18064673510329,-2.78509082107374,3.02722226761052,1.28927400667332,"good"
"29","9373550141_R04C01","Chan","D_mk18","Illumina_450K","PanNET","primary",16.3724754244271,-6.51557875955157,-2.51909294802548,3.46648942898333,1.31637964571334,"good"
"30","9933448113_R06C01","Chan","D_mk9","Illumina_450K","PanNET","primary",10.6880490864014,-2.56963616461328,-2.81433410914909,2.72556253192666,1.27385477801671,"good"
"31","9933448113_R01C02","Chan","DM1_mk17","Illumina_450K","PanNET","primary",16.8121058078643,-7.87630891593131,-2.68377569122945,2.65435122589214,1.27654488405428,"good"
"32","9373550141_R05C02","Chan","DM1_mk45","Illumina_450K","PanNET","primary",17.5775894001789,-6.63331241777231,-2.61041916206347,2.84507529697527,1.27973990875003,"good"
"33","9934398010_R06C02","Chan","DM1_mk52","Illumina_450K","PanNET","primary",11.8631805129714,-4.01072929996865,-2.92091473400192,3.07534241341894,1.23030814615422,"good"
"34","9933448070_R04C02","Chan","M1_LS1","Illumina_450K","PanNET","primary",19.0670614592797,-8.70445711680321,-3.14534551371579,2.89589841304396,1.31306786036995,"good"
"35","9373550165_R02C01","Chan","WT_LS27","Illumina_450K","PanNET","primary",13.1214523488,-5.92044811556379,-2.70495629041116,2.59311690434381,1.37278065632352,"good"
"36","9373550165_R03C01","Chan","WT_LS39","Illumina_450K","PanNET","primary",6.04924490223209,-2.22921258009434,0.806172984419522,-1.18695011174864,1.34662849794719,"good"
"37","9934398017_R01C02","Chan","WT_LS65","Illumina_450K","PanNET","primary",18.6845226019822,-6.69100138966572,-0.952462643768977,2.43696817684845,1.31877483663679,"good"
"38","9934398010_R03C01","Chan","WT_mk13","Illumina_450K","PanNET","primary",6.04489310535004,-2.23607238510232,0.972085652153211,-1.20866144576781,1.28379250668034,"good"
"39","9933448070_R02C01","Chan","WT_mk15","Illumina_450K","PanNET","primary",13.0566828840463,-5.92482852916062,-1.68770459601477,2.09765521552493,1.26175905115479,"good"
"40","9934398010_R04C01","Chan","WT_mk19","Illumina_450K","PanNET","primary",11.3482033104866,-3.44947604652083,-1.12491964551983,2.51426667836744,1.28246558605237,"good"
"41","9934398010_R05C01","Chan","WT_mk21","Illumina_450K","PanNET","primary",11.1392678575248,-3.30312306912795,-1.31798137392383,2.01104387423223,1.28595740777514,"good"
"42","9934398010_R01C02","Chan","WT_mk27","Illumina_450K","PanNET","primary",8.27814728528231,-3.05691236031629,-0.749210679442596,2.10050551908551,1.33812630445057,"good"
"43","9934398010_R05C02","Chan","WT_mk39","Illumina_450K","PanNET","primary",13.7034327115396,-3.9976937528761,-1.43624354913635,2.03374904299879,1.25875650659992,"good"
"44","9933448070_R02C02","Chan","WT_mk49","Illumina_450K","PanNET","primary",6.97929361910325,-2.0877740768919,-1.52981362774054,1.55845348432992,1.27423260523392,"good"
"45","9933448070_R03C02","Chan","WT_mk50","Illumina_450K","PanNET","primary",18.4842949716526,-8.32621315777436,-2.62143154280289,2.00227410281129,1.26860823656913,"good"
"46","9934398010_R01C01","Chan","WT_mk8","Illumina_450K","PanNET","primary",10.1204560481613,-3.41814534289903,-0.878082976495178,2.35239819874442,1.32242796020092,"good"
"47","200069280190_R01C01","DiDomenico","UB01",NA,"PanNET","primary",13.3543441661278,-5.17498137415412,-3.08735462110714,2.66739434696377,0.674931209946689,"bad"
"48","200069280190_R02C01","DiDomenico","UB02",NA,"PanNET","primary",21.9228106141053,-10.359363196958,-2.78001302327863,3.04598380087409,1.21074675802856,"good"
"49","200069280190_R03C01","DiDomenico","UB04",NA,"PanNET","primary",20.0621876987377,-8.74001784003495,-3.36905607581963,3.09527353067824,0.944145500002751,"medium"
"50","200069280190_R04C01","DiDomenico","UB06",NA,"PanNET","primary",15.6470123925067,-4.89685238428917,-1.02236764291413,2.51683797474181,1.17564973902092,"good"
"51","200071610011_R01C01","DiDomenico","UB07",NA,"PanNET","primary",20.0092774525717,-10.0048877203815,-2.8106010676221,1.98251583220481,1.13083038190277,"good"
"52","200071610011_R02C01","DiDomenico","UB08",NA,"PanNET","primary",20.7402003309035,-10.3482447023927,-3.16050205569481,2.82925926608937,1.09085635186302,"good"
"53","200069280190_R05C01","DiDomenico","UB09",NA,"PanNET","primary",17.6747950471821,-8.08823317392268,-3.06833993200056,2.76246367379582,1.11241985581657,"good"
"54","200069280190_R06C01","DiDomenico","UB10",NA,"PanNET","primary",10.2775950808273,-3.85907604531039,-0.645646563185462,2.34329672220569,0.938075191600524,"medium"
"55","200069280233_R03C01","DiDomenico","UB11",NA,"PanNET","primary",18.5478880430392,-8.31569727619067,-3.03871676978618,2.65542494382536,1.01663549692872,"good"
"56","200069280190_R01C02","DiDomenico","UB12",NA,"PanNET","primary",12.2281940834159,-7.61125355633918,-1.59253248808957,1.45546815232234,0.955648522990389,"medium"
"57","200069280190_R02C02","DiDomenico","UB13",NA,"PanNET","primary",13.6222082380133,-7.0237997686006,-0.710521719688877,2.50002447901083,1.2553150910957,"good"
"58","200069280190_R03C02","DiDomenico","UB14",NA,"PanNET","primary",21.1084870381411,-9.61740382668074,-3.37651534284598,3.05308090664604,1.2346645174733,"good"
"59","200069280190_R04C02","DiDomenico","UB15",NA,"PanNET","primary",12.883332537576,-4.9439836051864,-3.226522773436,2.66961144403801,1.10207628210314,"good"
"60","200069280190_R05C02","DiDomenico","UB17",NA,"PanNET","primary",16.7310777575989,-7.33521044084152,-2.79334954050113,3.55188309308614,1.28802085692258,"good"
"61","200069280190_R06C02","DiDomenico","UB18",NA,"PanNET","primary",16.6933725131962,-5.75333125273412,-2.32381863965526,3.98669922472906,1.03094555024421,"good"
"62","200071610011_R04C01","DiDomenico","UB19",NA,"PanNET","primary",18.5655203789999,-7.92821451086845,-3.05150545780738,2.78075354832115,1.18336331355592,"good"
"63","200069280233_R04C01","DiDomenico","UB20",NA,"PanNET","primary",14.3794051049696,-7.89982599000174,-2.42672271142211,1.84797267360437,1.17317675378734,"good"
"64","200069280233_R05C01","DiDomenico","UB21",NA,"PanNET","primary",8.96052526003326,-2.48298261408038,-2.38887775994285,2.91215624663811,1.2692650274795,"good"
"65","200071610011_R05C01","DiDomenico","UB22",NA,"PanNET","primary",21.7155925509104,-9.94782449691325,-2.4319320466389,3.69294854223815,1.0322060900509,"good"
"66","200071610011_R02C02","DiDomenico","UB27",NA,"PanNET","primary",21.6871160441414,-10.6736799212138,-2.47064112539061,3.68946320823292,1.21872313094287,"good"
"67","200071610011_R03C02","DiDomenico","UB28",NA,"PanNET","primary",12.4249323151468,-5.74434864363346,-2.55972257338217,3.02308307923343,1.14455171420182,"good"
"68","200069280233_R02C02","DiDomenico","UB31",NA,"PanNET","primary",8.27905663243575,-3.2508603021658,-0.720369207802076,2.46102805590657,1.03216427812505,"good"
"69","200069280233_R03C02","DiDomenico","UB32",NA,"PanNET","primary",21.221726527312,-9.50698340052652,-2.23085698453585,3.83133925045273,1.12518539860745,"good"
"70","200069280233_R04C02","DiDomenico","UB33",NA,"PanNET","primary",20.3325011133007,-9.67276668663894,-3.15239034725579,3.1901841438904,1.21553264826709,"good"
"71","3998426105_R01C01","DiDomenico","UB37",NA,"PanNET","primary",14.2746905544792,-7.8575568325238,-2.5791492765499,1.84493193336685,0.957260671057486,"medium"
"72","3998426105_R02C01","DiDomenico","UB38",NA,"PanNET","primary",14.9427962181776,-7.89210397784796,-2.80212673010622,2.73919174120205,1.14249558597742,"good"
"73","3998426105_R05C02","DiDomenico","UB47",NA,"PanNET","primary",12.6243544848392,-4.86288980191752,-3.1707613968277,2.53263975717029,0.977945966420118,"medium"
"74","7990895052_R02C01","DiDomenico","UCL06",NA,"PanNET","primary",19.5451852326047,-8.65968397105323,-2.42695927155576,3.56533364847007,1.04563754853542,"good"
"75","7990895053_R06C01","DiDomenico","UCL10",NA,"PanNET","primary",8.62725427962331,-2.38378767571259,-0.908255705126924,2.15209997115859,1.19452630145511,"good"
"76","7990895053_R02C01","DiDomenico","UCL22",NA,"PanNET","primary",8.04134814750554,-3.791608417151,-0.426601737214245,2.48687556996017,1.13225079753317,"good"
"77","7990895052_R01C02","DiDomenico","UCL24",NA,"PanNET","primary",18.1069290169043,-7.50903595721555,-3.28506722578926,2.65203854250853,1.08410795673075,"good"
"78","9305651119_R01C02","DiDomenico","UCL27",NA,"PanNET","primary",19.651306281885,-7.97951292698012,-3.20626357224405,3.28102971685247,0.898322948346776,"medium"
"79","7990895052_R06C01","DiDomenico","UCL32",NA,"PanNET","primary",12.4871581460802,-6.17395627863486,-2.63476349724991,2.28463793164568,0.975519108683782,"medium"
"80","9305651134_R01C01","DiDomenico","UCL34",NA,"PanNET","primary",14.7758203578189,-6.46236790566202,-1.17799551094827,2.88163155684339,1.10883523532237,"good"
"81","9305651096_R04C01","DiDomenico","UCL37",NA,"PanNET","primary",14.7342985039157,-6.40684767416157,-1.2171553100756,2.92964422998895,1.16469245969683,"good"
"82","9305651119_R06C02","DiDomenico","UCL43",NA,"PanNET","primary",-3.08554817472912,4.52147018736782,1.23855772561795,0.676088215767144,1.09824019302854,"good"
"83","9305651134_R03C02","DiDomenico","UCL45",NA,"PanNET","primary",14.7355688370991,-4.48850165736949,-1.11727405523658,2.2097132785845,1.21775853227998,"good"
"84","9305651091_R05C02","DiDomenico","UCL46",NA,"PanNET","primary",18.2861362862334,-6.00469946054335,-2.72026469396697,4.29418074346046,1.19583213125187,"good"
"85","7990895052_R03C02","DiDomenico","UCL52",NA,"PanNET","primary",13.2262004869911,-4.08134408892095,-2.19476535193125,4.0038931686025,1.22274705407853,"good"
"86","9305651091_R01C01","DiDomenico","UCL56",NA,"PanNET","primary",20.9837301332178,-10.3706721805133,-2.81236834460816,3.3727820698812,1.07609521276763,"good"
"87","9305651134_R05C01","DiDomenico","UCL57",NA,"PanNET","primary",15.9892649190441,-5.17943072991272,-2.24042846232812,4.08666709863383,1.15562153990738,"good"
"88","9305651091_R05C01","DiDomenico","UCL62",NA,"PanNET","primary",18.0134866212279,-5.89700889891396,-2.72855377225935,4.23902082391911,1.21889541871462,"good"
"89","9305651119_R02C01","DiDomenico","UCL69",NA,"PanNET","primary",15.0732287930097,-4.63155462352302,-0.781120029638949,2.16845710299545,1.09299729710836,"good"
"90","9305651091_R02C01","DiDomenico","UCL70",NA,"PanNET","primary",19.6405527382496,-7.61065730900064,-2.68670372821244,4.35005629291145,1.04740469598434,"good"
"91","7990895053_R04C01","DiDomenico","UCL71",NA,"PanNET","primary",12.3745408278108,-3.94357460080791,-2.19987508344316,1.88877268409926,1.16027020768622,"good"
"92","9305651096_R06C02","DiDomenico","UCL72",NA,"PanNET","primary",20.9246101666516,-9.26419041390317,-2.51687017727828,4.23406028394095,0.929072094508148,"medium"
"93","200071610011_R06C02","DiDomenico","UB36",NA,"normal","pancreas",-4.38400884676145,-4.88301187722318,2.81477584772873,1.87526483120528,1.15182298989566,"good"
"94","3998426105_R03C01","DiDomenico","UB39",NA,"normal","pancreas",-4.89133791493263,-4.8964661594832,2.70252416915063,1.77356736562888,0.947564928795507,"medium"
"95","3998426105_R05C01","DiDomenico","UB41",NA,"normal","pancreas",-4.72125931389109,-5.04386123929072,2.57609230242396,1.65512288769012,0.910746888354193,"medium"
"96","3998426105_R06C01","DiDomenico","UB42",NA,"normal","pancreas",-3.7535979145008,-5.04230965155078,2.58819457190324,1.62589488223387,0.895192862029821,"medium"
"97","7990895027_R04C01","DiDomenico","UCL20",NA,"normal","pancreas",-4.43060072543509,3.89976425858192,2.00472624497502,1.10268331820878,1.11738044751856,"good"
"98","9305651096_R05C01","DiDomenico","UCL36",NA,"normal","pancreas",-3.23500914464705,-4.69588076526423,2.3059211906711,1.39690009301794,1.1971312566805,"good"
"99","9305651096_R01C01","DiDomenico","UCL39",NA,"normal","pancreas",-3.74678930173327,-5.60603307502965,2.45345097171356,1.35907640966116,1.13071232809198,"good"
"100","9305651091_R06C02","DiDomenico","UCL47",NA,"normal","pancreas",-4.2716619008409,-4.63982735138255,2.51890401340503,1.26688368184584,0.777610015030842,"bad"
"101","7990895027_R01C01","DiDomenico","UCL48",NA,"normal","pancreas",-5.32071010192854,-5.42619864463632,2.62704913305043,1.44583377203015,1.04827091989549,"good"
"102","9305651134_R06C01","DiDomenico","UCL58",NA,"normal","pancreas",-4.08035288775884,-4.67839451100419,2.59510097544986,1.24960537896325,0.804688863431549,"medium"
"103","9305651091_R04C01","DiDomenico","UCL63",NA,"normal","pancreas",-4.02869425863181,-5.75858644183439,2.56621400177439,1.51007411376631,0.931866057857171,"medium"
"104","9305651134_R02C01","DiDomenico","UCL65",NA,"normal","pancreas",-3.47439326393487,-5.04713787348476,2.41020383925555,1.30043730572604,1.20102673727731,"good"
"105","9305651091_R06C01","DiDomenico","UCL67",NA,"normal","pancreas",-3.45355210481403,-5.21760464036428,2.46571856082643,1.38733602478131,1.15420731508286,"good"
"106","9305651119_R01C01","DiDomenico","UCL73",NA,"normal","pancreas",-3.86143482371754,-5.68431340863157,2.48127769598796,1.27273432241807,1.16531682826988,"good"
"107","3999720012_R04C01","Endo","PIP04-05T","Illumina_450K","PDAC","primary",-10.1064698827051,-1.89699789031942,0.213242298743199,-3.18606282181211,1.15590193424704,"good"
"108","3999720012_R04C02","Endo","PIP04-12T","Illumina_450K","PDAC","primary",-4.25317775831712,8.05603441396576,0.320515024527724,-0.679633802994766,1.17904544310139,"good"
"109","3999720011_R05C02","Endo","PK03-21T","Illumina_450K","PDAC","primary",-4.39976955029364,5.23557502956092,1.08586178799515,0.232187884259657,1.12224531099761,"good"
"110","3999720011_R06C02","Endo","PK03-25T","Illumina_450K","PDAC","primary",-7.56033867642254,15.8845413311338,0.0413700178187026,-3.18836431834911,1.10344323798867,"good"
"111","3999720043_R01C01","Endo","PK03-27T","Illumina_450K","PDAC","primary",-6.72790120825872,13.8682648403572,0.021905982573613,-2.52422668793059,1.15177049026837,"good"
"112","3999720043_R02C01","Endo","PK03-28T","Illumina_450K","PDAC","primary",-5.23731650058399,13.4084256773259,-0.339414443333464,-2.93258088948693,1.19946290634002,"good"
"113","3999720043_R03C01","Endo","PK03-29T","Illumina_450K","PDAC","primary",-1.48863401590902,11.4939293858303,-1.60923471246725,-2.20027682560456,1.18830039721457,"good"
"114","3999720010_R01C01","Endo","PK03-31T","Illumina_450K","PDAC","primary",-8.15803906641875,15.3844840441372,0.153122853830506,-3.08020633440951,1.21676954354061,"good"
"115","3999720010_R02C01","Endo","PK03-32T","Illumina_450K","PDAC","primary",-5.36725006457419,14.8285990196243,-0.704968643284949,-3.13107571327641,1.2214981911275,"good"
"116","3999720010_R03C01","Endo","PK03-33T","Illumina_450K","PDAC","primary",-6.8603258855154,15.6380142570108,0.0842344052199981,-2.36101651792041,1.19680340515808,"good"
"117","3999720010_R04C01","Endo","PK04-04T","Illumina_450K","PDAC","primary",-1.79654181076499,10.9795199150538,-1.25637147289311,-1.8819536819377,1.13475801770895,"good"
"118","3999720010_R05C01","Endo","PK04-05T","Illumina_450K","PDAC","primary",-6.65720146954864,15.9142018938163,-0.585116827859737,-3.13641883680101,1.11011025150499,"good"
"119","3999720010_R01C02","Endo","PK04-06T","Illumina_450K","PDAC","primary",-6.14713452196288,14.9151260635821,-0.300269829613873,-3.37621658310969,1.25358830677185,"good"
"120","3999720010_R06C01","Endo","PK04-07T","Illumina_450K","PDAC","primary",-2.30483746032467,9.56811528290713,-0.967266349111196,-1.56028139629756,1.13902151619202,"good"
"121","3999720010_R02C02","Endo","PK04-08T","Illumina_450K","PDAC","primary",-5.43370739980737,10.1328762944735,0.10163987967733,-1.29094336738959,1.24241453757377,"good"
"122","3999720010_R03C02","Endo","PK04-10T","Illumina_450K","PDAC","primary",-4.89069609723041,9.36431803843647,0.369829200098946,-1.43558044191114,1.22267149115832,"good"
"123","3999720010_R05C02","Endo","PK04-11T","Illumina_450K","PDAC","primary",-4.66228557087713,13.1632331149416,-0.715700504745986,-2.37499202716481,1.13730897526089,"good"
"124","3999720010_R06C02","Endo","PK04-12T","Illumina_450K","PDAC","primary",-6.70386821588774,14.4545994490622,0.043307018210033,-2.82331669195845,1.14995489932898,"good"
"125","3999720031_R01C01","Endo","PK04-13T","Illumina_450K","PDAC","primary",-4.66048617150796,8.1753871095077,0.519880214590802,-0.589536879085074,1.11379242667186,"good"
"126","3999720031_R02C01","Endo","PK04-14T","Illumina_450K","PDAC","primary",-4.80084233676686,13.4887079196558,-0.612913076140317,-2.85402256189702,1.15765381943592,"good"
"127","3999720043_R04C01","Endo","PK04-15T","Illumina_450K","PDAC","primary",-3.30349130918229,12.3323764318709,-1.13011448591994,-2.52089586325732,1.18497084109627,"good"
"128","3999720043_R06C01","Endo","PK04-17T","Illumina_450K","PDAC","primary",-2.35634733038453,11.7839517251354,-1.39334569935369,-1.8587851705702,1.10063678277573,"good"
"129","3999720012_R01C01","Endo","PK04-23T","Illumina_450K","PDAC","primary",-4.64666390355374,4.83870242061249,1.18026371851664,0.230297360389779,1.2028974827542,"good"
"130","3999720012_R02C01","Endo","PK04-24T","Illumina_450K","PDAC","primary",-8.184753091657,15.8422156382338,0.0117031449994305,-2.34014930066667,1.25177239127415,"good"
"131","3999720012_R05C01","Endo","PK04-25T","Illumina_450K","PDAC","primary",-4.20705479617814,5.44661265561486,1.15750765347762,0.350388131070156,1.10872983123519,"good"
"132","3999720043_R02C02","Endo","PK04-27T","Illumina_450K","PDAC","primary",-5.29468895982241,14.5734994843515,-0.619419208638588,-3.1725056468667,1.17279898516134,"good"
"133","3999720001_R01C01","Endo","PK04-28T","Illumina_450K","PDAC","primary",-2.75103863095262,11.0217193668003,-0.780273703695574,-2.37436087729127,1.25805819435515,"good"
"134","3999720012_R01C02","Endo","PK04-30T","Illumina_450K","PDAC","primary",-6.0289897243493,12.9453024157486,-0.119266018859089,-2.5718572128512,1.25377173568284,"good"
"135","3999720012_R02C02","Endo","PK04-31T","Illumina_450K","PDAC","primary",-1.81306549076026,10.5604045176271,-1.11468551685802,-1.6888111818527,1.2411888025905,"good"
"136","3999720043_R06C02","Endo","PK04-32T","Illumina_450K","PDAC","primary",-5.38847008498592,13.7451263805696,-0.427344576745104,-2.63322031280203,1.17014378117239,"good"
"137","3999720012_R03C02","Endo","PK04-33T","Illumina_450K","PDAC","primary",-7.28631459441174,14.1365096968939,-0.153491214959963,-2.69557343616839,1.23219243103988,"good"
"138","3999423004_R01C01","Endo","PK04-34T","Illumina_450K","PDAC","primary",-1.48997278194257,11.3620487071457,-1.66794047484501,-2.18880727631854,1.17615918769382,"good"
"139","3999720012_R06C02","Endo","PK04-36T","Illumina_450K","PDAC","primary",-3.7833635256704,8.75365321093469,0.0376153349962847,-1.02353245579048,1.08529081344678,"good"
"140","3999720050_R02C01","Endo","PK04-37T","Illumina_450K","PDAC","primary",-4.39204124713919,6.52050129386267,0.841939569927385,0.113123597587781,1.2207908127803,"good"
"141","3999720044_R02C01","Endo","PK04-40T","Illumina_450K","PDAC","primary",-5.47470001411696,14.1102927921686,-1.31578453560012,-2.57824366790673,1.18058147474358,"good"
"142","3999720031_R05C01","Endo","PK04-41T","Illumina_450K","PDAC","primary",-0.721048734304473,10.6261882410679,-1.59308178535507,-1.93653318103755,1.19747508233857,"good"
"143","3999720044_R03C01","Endo","PK04-43T","Illumina_450K","PDAC","primary",-4.52035830189345,4.33861515393429,1.39617163990234,0.681639863981272,1.18213325741255,"good"
"144","3999720010_R04C02","Endo","PK04-44T","Illumina_450K","PDAC","primary",-7.19340884553505,15.3396758915884,-0.142359279294253,-3.25649518262489,1.16642289842553,"good"
"145","3999720012_R05C02","Endo","PK04-45T","Illumina_450K","PDAC","primary",-4.36278846449442,12.2957185752069,-0.583841314429273,-3.07455442674315,1.16897378553735,"good"
"146","3999720031_R03C01","Endo","PK04-46T","Illumina_450K","PDAC","primary",-4.16839346051054,13.3723914599414,-0.933426699444014,-2.22498776950546,1.17656721060211,"good"
"147","3999720044_R04C01","Endo","PK05-01T","Illumina_450K","PDAC","primary",-2.98978557412717,11.5120178963829,-0.810592962697332,-2.13392477875791,1.21404212936918,"good"
"148","3999720031_R01C02","Endo","PK05-03T","Illumina_450K","PDAC","primary",-4.11961346985622,7.11989169063607,0.741195829446628,-0.12408445772806,1.11613802374476,"good"
"149","3999720044_R06C01","Endo","PK05-04T","Illumina_450K","PDAC","primary",-3.64633422856035,12.6020816019538,-0.869974733500606,-2.81712115981659,1.14108249125395,"good"
"150","3999720082_R03C02","Endo","PK05-05T","Illumina_450K","PDAC","primary",-8.292623727838,15.6606107558228,0.119595035957861,-3.33024204447295,1.15565024929785,"good"
"151","3999720082_R04C02","Endo","PK05-06T","Illumina_450K","PDAC","primary",-3.41667173625187,7.996429181853,0.0837015222901227,-0.566122122433141,1.21331994699296,"good"
"152","3999720082_R05C02","Endo","PK05-07T","Illumina_450K","PDAC","primary",-4.8165789276333,9.15182917486777,0.0299828593967946,-1.20230470908287,1.18060433679775,"good"
"153","3999720001_R02C01","Endo","PK05-10T","Illumina_450K","PDAC","primary",-6.41083792203717,14.0595825470824,-0.180216718995255,-2.44625502265682,1.19676045417721,"good"
"154","3999720031_R03C02","Endo","PK05-11T","Illumina_450K","PDAC","primary",-2.45341118221841,10.9432988238453,-0.937381127641171,-2.15762673101797,1.10663207668773,"good"
"155","3999720001_R03C01","Endo","PK05-12T","Illumina_450K","PDAC","primary",-4.70070591223049,8.78545034083508,0.221189069903742,-1.11884554499422,1.16414168532078,"good"
"156","3999720001_R04C01","Endo","PK05-14T","Illumina_450K","PDAC","primary",-0.346959507790034,10.5110665751493,-1.92514491143481,-2.02206622575108,1.14630721777526,"good"
"157","3999720001_R05C01","Endo","PK05-15T","Illumina_450K","PDAC","primary",-4.38773763097419,6.10006107039242,1.04665896187986,-0.289434869884866,1.18068637490333,"good"
"158","3999720001_R06C01","Endo","PK05-17T","Illumina_450K","PDAC","primary",-7.23898790885606,12.9793255032679,0.147940606209607,-1.67187992460811,1.17332635090213,"good"
"159","3999720001_R01C02","Endo","PK05-21T","Illumina_450K","PDAC","primary",-4.37894211161112,6.64156252091595,0.863979694396815,0.136002567237897,1.24363394832779,"good"
"160","3999720001_R04C02","Endo","PK05-24T","Illumina_450K","PDAC","primary",-3.55513369130586,6.93584045378862,0.570665509613461,-0.0549785910569573,1.18147239842405,"good"
"161","3999720001_R05C02","Endo","PK05-25T","Illumina_450K","PDAC","primary",-2.7478564088524,11.7467965180776,-0.903454327588007,-2.69313698992936,1.1507480131284,"good"
"162","3999720001_R06C02","Endo","PK05-26T","Illumina_450K","PDAC","primary",-7.44188772849891,15.0222836502067,-0.326986491620236,-2.7302387210825,1.10874162853554,"good"
"163","3999720031_R05C02","Endo","PK05-30T","Illumina_450K","PDAC","primary",-4.95840466751555,11.2516156755337,0.7089385466493,-1.50524259716008,1.15288419194528,"good"
"164","3999720011_R06C01","Endo","PK05-31T","Illumina_450K","PDAC","primary",-0.343132826734717,10.0546832242656,-2.00157560975947,-2.0640048935197,1.18963015924788,"good"
"165","3999720011_R01C02","Endo","PK05-32T","Illumina_450K","PDAC","primary",-6.35162531873121,13.9213479954461,-0.0975954346093819,-3.29462749374617,1.19898288194763,"good"
"166","3999720044_R02C02","Endo","PNC003T","Illumina_450K","PDAC","primary",-0.801865254000864,10.5761224705858,-1.81884939876528,-1.926256734757,1.12531741747839,"good"
"167","3999720033_R01C01","Endo","PNC004T","Illumina_450K","PDAC","primary",-7.24008787947427,15.2156554873707,-0.126127102742137,-3.28677423187657,1.14567452949666,"good"
"168","3999720048_R01C01","Endo","PNC005T","Illumina_450K","PDAC","primary",-3.54719245369221,12.6091174880248,-0.701141235940552,-2.21672223644594,1.22304267377031,"good"
"169","3999720033_R02C01","Endo","PNC008T","Illumina_450K","PDAC","primary",-5.30177488315767,9.92912983177602,0.132199299567276,-1.38713564354433,1.12820351781133,"good"
"170","3999720048_R03C01","Endo","PNC009T","Illumina_450K","PDAC","primary",-4.16431081624423,7.91180294526858,0.256094626921852,-0.755901397321102,1.20802637700862,"good"
"171","3999720048_R05C01","Endo","PNC012T","Illumina_450K","PDAC","primary",-8.69976274579452,15.7693108962416,0.139678982015594,-3.33502442145636,1.17098798848412,"good"
"172","3999720048_R01C02","Endo","PNC013T","Illumina_450K","PDAC","primary",-3.82896054006347,11.3855254023407,-0.697279905349783,-1.98022292040667,1.18753969355589,"good"
"173","3999720048_R03C02","Endo","PNC014T","Illumina_450K","PDAC","primary",-6.75745570745953,13.727886228096,0.174980258485283,-2.62466928986847,1.18219270220616,"good"
"174","3999720048_R05C02","Endo","PNC015T","Illumina_450K","PDAC","primary",-5.30961836433805,11.4144374012332,-0.0327631976958425,-1.7911648098374,1.14797637498976,"good"
"175","3999720070_R01C01","Endo","PNC016T","Illumina_450K","PDAC","primary",-2.32688805540833,11.9284205505858,-1.21324074236376,-2.58080704131549,1.17136983752774,"good"
"176","3999720070_R03C01","Endo","PNC018T","Illumina_450K","PDAC","primary",-5.90725620997936,12.1535937816671,0.10343378861085,-2.03687489308875,1.19561168627352,"good"
"177","3999720033_R03C01","Endo","PNC019T","Illumina_450K","PDAC","primary",-4.60218290198006,9.026026869059,0.167380140121132,-0.947160725274408,1.15866285616431,"good"
"178","3999720044_R04C02","Endo","PNC022T","Illumina_450K","PDAC","primary",-2.71132453952159,12.7874232233607,-1.40855739165636,-2.42883455973938,1.17496911802725,"good"
"179","3999720011_R01C01","Endo","PNC025T","Illumina_450K","PDAC","primary",-1.61025612610677,9.5359420187087,-1.16782089314579,-1.44329701252812,1.2151961081384,"good"
"180","3999720061_R01C01","Endo","PNC026T","Illumina_450K","PDAC","primary",-6.15153776902464,14.868540588307,-0.387192672964733,-3.31875280729382,1.20614148733823,"good"
"181","3999720033_R04C01","Endo","PNC028T","Illumina_450K","PDAC","primary",-3.50067942395953,12.5805841452969,-1.02894702434828,-2.44255638988343,1.20261939474672,"good"
"182","3999720061_R06C02","Endo","PNC029T","Illumina_450K","PDAC","primary",-1.23776614542018,10.3318983497654,-1.917043807016,-2.11250085174284,1.118126889973,"good"
"183","3999720011_R03C02","Endo","PNC031T","Illumina_450K","PDAC","primary",-4.33620551573656,6.54155226686221,0.983991155085391,-0.0909792277124254,1.21805749587108,"good"
"184","3999720061_R04C01","Endo","PNC032T","Illumina_450K","PDAC","primary",-4.73742205508436,12.7923926004282,-0.785739406639117,-2.60755220341497,1.12789110899962,"good"
"185","3999720061_R06C01","Endo","PNC033T","Illumina_450K","PDAC","primary",-1.89166291581597,11.300928843642,-1.60686584048861,-2.29824918460644,1.13616886200744,"good"
"186","3999720061_R02C02","Endo","PNC034T","Illumina_450K","PDAC","primary",-6.09272593137442,14.4964383369941,-0.73636871503568,-2.60421660954455,1.19839228864312,"good"
"187","3999720061_R04C02","Endo","PNC035T","Illumina_450K","PDAC","primary",-0.884727042723146,11.4131200124043,-2.08021063343187,-2.16556965030986,1.18108777475216,"good"
"188","3999720082_R06C02","Endo","PNC044T","Illumina_450K","PDAC","primary",-1.11375096990852,10.5871447170919,-1.77427323103067,-1.86463495679415,1.22700612813191,"good"
"189","9769100027_R02C02","Jakel","N1N","Illumina_450K","normal","pancreas",-4.47745947576802,-5.54799134196609,2.80079423260238,1.84467455379226,1.02714456139738,"good"
"190","9769100027_R05C01","Jakel","N4N","Illumina_450K","normal","pancreas",-4.46621526292921,-5.85011586501055,2.80027184341565,1.74018184347667,1.06264177373512,"good"
"191","9769100029_R05C01","Jakel","N3N","Illumina_450K","normal","pancreas",-5.71747425982516,-5.65752048048584,2.91246835071457,2.00196819987099,1.04867735097907,"good"
"192","9769100029_R02C02","Jakel","N6N","Illumina_450K","normal","pancreas",-4.1891415427326,-5.17542610655248,2.71879757902715,1.73886258908758,1.16168346119569,"good"
"193","9769100039_R03C01","Jakel","N2N","Illumina_450K","normal","pancreas",-5.03406208192734,-5.59309541841632,2.92005595762818,1.99178788559323,1.08134959211298,"good"
"194","9769100039_R04C01","Jakel","N5N","Illumina_450K","normal","pancreas",-4.70850070681869,-5.57811979058315,2.76588743252827,1.8214830611423,1.04057772028953,"good"
"195","9769100027_R06C02","Jakel","11T","Illumina_450K","ACC","primary",-19.0630055824841,-4.63515873399591,4.56464686217418,-2.90309788662674,1.03782009671178,"good"
"196","9769100027_R04C01","Jakel","13T","Illumina_450K","ACC","primary",-2.84086542905429,2.16022086820194,-1.32869869337937,-2.673921819106,1.23386140741831,"good"
"197","9769100027_R05C02","Jakel","15T","Illumina_450K","ACC","primary",-16.2666150964115,-3.74016852435631,4.64969580957098,-2.80375699384346,1.08228068725583,"good"
"198","9769100027_R02C01","Jakel","16T","Illumina_450K","ACC","primary",-14.2819693366754,-2.56056050189746,3.87042045720541,-3.24500569946795,1.19177888412625,"good"
"199","9769100027_R01C02","Jakel","19T","Illumina_450K","ACC","primary",-18.6058318257426,-3.41312222897477,4.24114916170955,-3.06413771307342,1.23560705357196,"good"
"200","9769100027_R06C01","Jakel","4T","Illumina_450K","ACC","primary",-18.5880985666051,-5.27321644094702,3.68256892040635,-1.97942570281862,1.19547067733166,"good"
"201","9769100027_R03C01","Jakel","5T","Illumina_450K","ACC","primary",-15.1686172368901,-2.59323169598842,4.07601694229516,-3.22151510933463,1.15085077412349,"good"
"202","9769100029_R03C01","Jakel","12T","Illumina_450K","ACC","primary",-17.0370772645299,-4.5834016205703,3.59932428569745,-2.67617759460432,1.23582858295511,"good"
"203","9769100029_R04C02","Jakel","17T","Illumina_450K","ACC","primary",-19.6870671292607,-4.55550841187597,4.57134363824154,-2.63289476203465,1.17705321903618,"good"
"204","9769100029_R01C01","Jakel","3T","Illumina_450K","ACC","primary",-12.5166143098302,-3.53949239344472,0.308056122054869,-3.31443966779679,1.13273165298524,"good"
"205","9769100029_R02C01","Jakel","6T","Illumina_450K","ACC","primary",-17.6375626852183,-4.38601253268411,3.61981647948608,-2.65647357023196,1.09538135220123,"good"
"206","9769100029_R04C01","Jakel","7T","Illumina_450K","ACC","primary",-14.3271416814272,-3.15872745711474,3.7253144031383,-1.88770504820757,1.00087358563491,"good"
"207","9769100039_R06C01","Jakel","10T","Illumina_450K","ACC","primary",-18.4675382592358,-4.81410833976661,4.45698789267112,-2.6516705545704,1.16544111390729,"good"
"208","9769100039_R06C02","Jakel","14T","Illumina_450K","ACC","primary",-4.47051538724723,3.18975810481303,1.02337750501816,0.296910261345857,1.28522190880798,"good"
"209","9769100039_R01C01","Jakel","18T","Illumina_450K","ACC","primary",-16.7796733522514,-3.28853511413315,4.08084821728382,-3.25307708261147,1.26281233994625,"good"
"210","9769100039_R04C02","Jakel","1T","Illumina_450K","ACC","primary",-17.3450254159455,-3.54084392425588,4.43057944839075,-2.67794099560638,1.17748524634647,"good"
"211","9769100039_R02C02","Jakel","8T","Illumina_450K","ACC","primary",-20.1495572220138,-4.80970430317885,4.31091492428527,-2.91397262808855,1.11717377412002,"good"
"212","9769100039_R02C01","Jakel","9T","Illumina_450K","ACC","primary",-18.6202477577697,-3.48251410750175,3.86973409926297,-3.09849616149501,1.03373034056126,"good"
"213","200325530168_R02C02","Jakel","ACC K13 T","Illumina_450K","ACC","primary",-15.2774891483084,-2.75804293357961,3.65403588730762,-3.05655163647809,1.15240358161912,"good"
"214","200325530168_R06C02","Jakel","ACC K18 T","Illumina_450K","ACC","primary",-19.8075978738006,-4.98866098108613,4.14678796431597,-2.43178598235375,1.10526056848257,"good"
"215","200325530168_R06C01","Jakel","ACC K2 T","Illumina_450K","ACC","primary",-18.124673950511,-4.08775743501933,4.09519081910693,-2.70310515586116,1.0621585803313,"good"
"216","200325530168_R05C02","Jakel","ACC K4 T","Illumina_450K","ACC","primary",-19.9127948366681,-4.418420492628,4.29218322244222,-2.53163949851959,1.32151634291423,"good"
"217","200325530168_R03C02","Jakel","ACC K5 T","Illumina_450K","ACC","primary",-15.7597669208438,-2.88385250500838,3.80168408970841,-2.96401439072765,1.0097876611578,"good"
"218","200325530168_R04C01","Jakel","ACC K9 T","Illumina_450K","ACC","primary",-16.2144233517996,-2.40237205834949,3.71024983627016,-3.35511991354985,1.09613115314764,"good"
"219","200360420003_R04C01","Jakel","ACC K10 T","Illumina_450K","ACC","primary",-17.6977812146623,-5.36250680334786,3.77249126825243,-2.00698704252799,1.20067932161339,"good"
"220","200360420003_R02C02","Jakel","ACC K14 T","Illumina_450K","ACC","primary",-19.9408418595748,-5.63869170462399,3.60840900055445,-2.36821354969437,0.993464558363729,"medium"
"221","200360420003_R04C02","Jakel","ACC K6 T","Illumina_450K","ACC","primary",-18.4763676100896,-4.22430756067021,3.96738310392799,-2.38917914778002,1.14119120249466,"good"
"222","200360420003_R06C02","Jakel","ACC K7 T","Illumina_450K","ACC","primary",-14.9677822778057,-3.40099386449631,3.58277156368399,-2.56703574799725,1.16509486394691,"good"
"223","200360420003_R06C01","Jakel","ACC K8 T","Illumina_450K","ACC","primary",-16.6710967247172,-4.56721938007151,3.61169371537193,-2.61096263002662,1.16945987655978,"good"
"224","200360420007_R02C01","Jakel","ACC K1 T","Illumina_450K","ACC","primary",-18.9576736460386,-4.10618219027746,4.37821262479734,-2.64662584268648,1.21075671457884,"good"
"225","200360420007_R04C01","Jakel","ACC K11 T","Illumina_450K","ACC","primary",-13.2295363212115,-2.57960483102561,2.49529297860836,1.59007968630665,1.17303250609004,"good"
"226","200360420007_R03C02","Jakel","ACC K19 T","Illumina_450K","ACC","primary",-20.5131290740957,-4.87453318058836,4.29309244441408,-2.67445381837333,1.17474864955449,"good"
"227","200360420007_R01C02","Jakel","ACC K3 T","Illumina_450K","ACC","primary",-20.4600562203287,-5.53285052518562,4.02369330510616,-3.26406445457574,1.15213423779148,"good"
"228","200360420008_R03C01","Jakel","ACC K12 T","Illumina_450K","ACC","primary",-18.0374682277055,-3.73245497562715,3.83846304551256,-2.15668186644054,1.21469631520415,"good"
"229","200360420008_R06C01","Jakel","ACC K15 T","Illumina_450K","ACC","primary",-5.58651736388118,-4.81276625988533,2.360219820142,1.70602117393027,1.1878003360966,"good"
"230","200360420008_R05C01","Jakel","ACC K16 T","Illumina_450K","ACC","primary",-16.8861610207298,-5.45514872061376,4.1053161587748,-3.2387125239311,0.875560227331309,"medium"
"231","200360420008_R01C01","Jakel","ACC K20 T","Illumina_450K","ACC","primary",-14.9976438130509,-3.45753714161289,3.78378413144399,-2.55278601028879,1.04697305426763,"good"
"232","9855358054_R06C01","Jakel","24T","Illumina_450K","PanNET","primary",7.82704099337163,-2.6436757708665,-0.506945450150643,2.30390845897236,1.25287269061011,"good"
"233","9855358054_R01C02","Jakel","25T","Illumina_450K","PanNET","primary",17.3285747287696,-6.46010945679747,-2.82206350248112,3.94415014681473,1.16194369356487,"good"
"234","9855358054_R03C02","Jakel","26T","Illumina_450K","PanNET","primary",-17.4913833630727,-3.68056409411845,4.60433410387203,-2.89820546076154,1.16832756121808,"good"
"235","9855358054_R04C02","Jakel","27T","Illumina_450K","PanNET","primary",19.6501567996871,-9.40305764202169,-3.24259992233708,2.46958510777121,0.777466184518514,"bad"
"236","9855358054_R06C02","Jakel","28T","Illumina_450K","PanNET","primary",21.7036911433639,-10.8114802271221,-2.92068188065439,3.95592582639673,0.859798155512103,"medium"
"237","9855358055_R01C01","Jakel","29T","Illumina_450K","PanNET","primary",21.7493669707557,-9.74339592805246,-2.59217279721278,3.4603981873132,1.28323857617531,"good"
"238","9855358055_R02C01","Jakel","30T","Illumina_450K","PanNET","primary",12.3263229468725,-4.95186860731834,-2.77453327630713,3.67582591638878,1.30819593327452,"good"
"239","9855358055_R03C01","Jakel","31T","Illumina_450K","PanNET","primary",11.514707128801,-5.23680838045017,-2.84294429807423,3.8391532836165,1.0845957205462,"good"
"240","9855358055_R04C01","Jakel","32T","Illumina_450K","PanNET","primary",12.0461069622952,-4.75640138259003,-2.68509044564261,3.04645669906033,1.29778543266861,"good"
"241","9855358055_R05C01","Jakel","33T","Illumina_450K","PanNET","primary",19.2384791433285,-7.77485602625286,-2.27108438029404,3.6080094278339,1.2806795301538,"good"
"242","9855358055_R06C01","Jakel","34T","Illumina_450K","PanNET","primary",19.4512101640067,-8.78859394805112,-3.33713109877593,2.98147789655824,1.17006832442586,"good"
"243","9855358055_R01C02","Jakel","35T","Illumina_450K","PanNET","primary",16.2112343505839,-5.42465948326192,-2.67767755151997,4.34799669149056,1.27481514310202,"good"
"244","9855358055_R02C02","Jakel","36T","Illumina_450K","PanNET","primary",8.68743443677175,-2.77451074354289,-0.573105808084717,2.33093374760628,1.2015530476851,"good"
"245","9855358055_R03C02","Jakel","37T","Illumina_450K","PanNET","primary",15.6037468751015,-5.52120681106003,-2.65902561650461,4.33383198633759,1.25120981755587,"good"
"246","9855358055_R04C02","Jakel","38T","Illumina_450K","PanNET","primary",12.192396341769,-6.28076934024531,-3.03668705007047,3.88394819417629,1.13788346487411,"good"
"247","9855358055_R05C02","Jakel","39T","Illumina_450K","PanNET","primary",-5.19274125194309,-4.04290904487089,1.73176486808903,1.01474750367422,1.2668997581749,"good"
"248","9855358055_R06C02","Jakel","40T","Illumina_450K","PanNET","primary",17.900423898713,-7.08273523045171,-3.2741136624542,2.87232941987127,1.26233470907452,"good"
"249","202226320010_R01C01","Selenica","SPN2T","Illumina_EPIC","SPN","primary",-3.36831220224958,0.665296577720813,-1.29285395607216,-0.105509039216637,1.27693876476234,"good"
"250","202226320010_R02C01","Selenica","SPN3T","Illumina_EPIC","SPN","primary",-3.82693479039121,0.172406298883405,-1.20421686285699,-0.169065804906871,1.24275189753188,"good"
"251","202226320010_R03C01","Selenica","SPN4T","Illumina_EPIC","SPN","primary",-3.97068013274833,-0.224078855683484,-1.56861976142231,-0.199418148945889,1.22366893954969,"good"
"252","202226320010_R04C01","Selenica","SPN5T","Illumina_EPIC","SPN","primary",-3.72291992689953,0.260028225769227,-1.39979153051191,-0.173530158456296,1.22815062252988,"good"
"253","202226320010_R05C01","Selenica","SPN6T","Illumina_EPIC","SPN","primary",-2.22332891428183,2.68781892152087,-1.05220453178275,0.0852560276014299,1.2098094668026,"good"
"254","202226320010_R06C01","Selenica","SPN7T","Illumina_EPIC","SPN","primary",-4.70160981638219,-0.716125858720482,-1.39016889868864,0.00464117862534719,1.20158926793396,"good"
"255","202226320010_R07C01","Selenica","SPN8T","Illumina_EPIC","SPN","primary",-3.4252218614881,0.626509270719642,-1.14128270479251,0.0536997116997928,1.19175645791093,"good"
"256","202226320010_R08C01","Selenica","SPN9T","Illumina_EPIC","SPN","primary",-0.043681666875824,10.0329732607358,-2.02608123302551,-2.09579536255913,1.2342658744674,"good"
"257","202226320016_R01C01","Selenica","SPN10T","Illumina_EPIC","SPN","primary",-4.1229242443467,-0.306649417602183,-1.47644492386302,-0.0797788671634507,1.23311991793724,"good"
"258","202226320016_R02C01","Selenica","SPN11T","Illumina_EPIC","SPN","primary",-3.54776356722042,0.0249201955163663,-1.5098414622241,-0.144451923699744,1.19797489547155,"good"
"259","202226320016_R03C01","Selenica","SPN12T","Illumina_EPIC","SPN","primary",-3.50531179376867,-0.0838732017039146,-1.45650622583333,-0.0669569416365359,1.16945267938175,"good"
"260","202226320016_R04C01","Selenica","SPN13T","Illumina_EPIC","SPN","primary",-1.91696304668643,3.74201249147589,-1.09226615002089,0.0710603946647786,1.15907272330309,"good"
"261","202226320016_R05C01","Selenica","SPN14T","Illumina_EPIC","SPN","primary",-3.3176219482245,0.673452746942332,-1.3353870178351,-0.187854667167417,1.1463676610336,"good"
"262","201364910013_R05C01","yachida","NE004","EPIC","PanNEC","primary",-12.6554710387778,-4.4564176315302,1.16517656386026,-1.90201533295046,1.2263646382115,"good"
"263","201364910013_R06C01","yachida","NE005","EPIC","PanNEC","primary",-5.82063754287373,-0.422593158273043,1.10281332313817,-1.75712425560787,1.18017557850103,"good"
"264","201364910146_R02C01","yachida","NE007","EPIC","PanNEC","primary",0.0246751413171214,9.66137466126184,-0.56770860306836,-0.626172465968527,1.20229975868366,"good"
"265","201364910146_R05C01","yachida","NE010","EPIC","PanNET","primary",7.22088289000769,-1.07554946790914,-1.65363608604903,1.53453806261864,1.18836701094875,"good"
"266","201364910146_R07C01","yachida","NE011","EPIC","PanNET","primary",13.8332944370105,-4.82075467392477,-2.57080629246758,2.56898478322222,1.227826275328,"good"
"267","201414140123_R01C01","yachida","NE012","EPIC","PanNET","primary",9.53341768434511,-1.91686541282711,-2.28910165256313,2.71683463087041,1.30222850770871,"good"
"268","201414140123_R02C01","yachida","NE013","EPIC","PanNET","primary",-6.1039713037252,-1.52259697711985,1.05427358863404,-1.37380406519506,1.25476974223844,"good"
"269","201414140123_R05C01","yachida","NE016","EPIC","PanNEC","primary",-12.6005929461857,-4.11676890219888,1.09083838100865,-1.75039861589421,1.26324911465292,"good"
"270","201325940106_R04C01","yachida","NE021","EPIC","PanNEC","primary",-6.24490821851106,-0.847621691804576,1.36142722206784,-1.76079438018987,1.24107031935593,"good"
"271","201325940106_R07C01","yachida","NE024","EPIC","PanNEC","primary",-12.8278882624009,-4.8058831736873,1.37179546882746,-1.81506445055496,1.23849840273873,"good"
"272","201325940106_R08C01","yachida","NE025","EPIC","PanNET","primary",7.16453637499428,-1.110782353857,-1.53357580305865,1.47052338240677,1.27648870410654,"good"
"273","201325940151_R04C01","yachida","NE029","EPIC","PanNEC","primary",-10.8044806375279,-2.60011310929768,0.182909469698406,-3.38425165039388,1.24701479221779,"good"
"274","201325940151_R06C01","yachida","NE031","EPIC","PanNET","primary",6.00176989496898,-2.01788530512958,1.00093816199868,-1.22443876836255,1.23423984111719,"good"
"275","201325940151_R07C01","yachida","NE032","EPIC","PanNET","primary",15.7619417250101,-8.37389149293693,-2.40508140640382,2.51020427172058,1.22801966050138,"good"
"276","201325940151_R08C01","yachida","NE033","EPIC","PanNEC","primary",-14.1473198869041,-4.56390888804949,1.5760479530615,-1.68391802053363,1.19460066369803,"good"
"277","201325940152_R01C01","yachida","NE034","EPIC","PanNET","primary",6.5228834993862,-1.39457448362891,-1.67284683220186,1.32903335404136,1.26547062414596,"good"
"278","201325940152_R04C01","yachida","NE036","EPIC","PanNET","primary",10.1728850534049,-2.23717588544951,-2.24076155741141,2.5888112434852,1.22567867431445,"good"
"279","201325940152_R05C01","yachida","NE037","EPIC","PanNET","primary",6.65645017892826,-0.669402445707783,-1.36237421338775,1.05631522314903,1.23792008998429,"good"
"280","201325940152_R06C01","yachida","NE038","EPIC","PanNET","primary",14.0773272220869,-4.04656979766214,-1.17698320964403,2.34093607657324,1.24904651818623,"good"
"281","201325940152_R07C01","yachida","NE039","EPIC","PanNET","primary",8.52284672709947,-1.41433386838413,-1.69135798929693,2.07968640445985,1.21657765514226,"good"
"282","201325940152_R08C01","yachida","NE040","EPIC","PanNET","primary",-4.12438387946712,4.22300161186624,1.15818985347354,0.622821631436641,1.27958892421557,"good"
"283","201325940068_R01C01","yachida","NE041","EPIC","PanNET","primary",15.9419432049297,-6.53224368539603,-2.89919635829096,3.2442197914983,1.29250264358361,"good"
"284","201325940068_R02C01","yachida","NE042","EPIC","PanNET","primary",7.39986669814387,-1.66055384865402,-1.31774735769339,1.72732549922069,1.29202304561262,"good"
"285","201325940068_R03C01","yachida","NE043","EPIC","PanNET","primary",7.34987387346597,-3.19379190184452,-0.666209246730996,1.95832086247216,1.26638338945015,"good"
"286","201325940068_R04C01","yachida","NE044","EPIC","PanNET","primary",17.0457516055084,-5.18772890500425,-2.61250821674239,4.26012383967095,1.26028821062074,"good"
"287","201325940068_R05C01","yachida","NE045","EPIC","PanNET","primary",20.3355083810201,-8.25626920004115,-2.65864245266706,3.4913432641884,1.25914799844136,"good"
"288","201325940068_R06C01","yachida","NE046","EPIC","PanNET","primary",11.6275081269167,-5.88714565604454,-1.96979728038279,1.66883111237288,1.23078966157563,"good"
"289","201325940068_R07C01","yachida","NE047","EPIC","PanNET","primary",7.99527457099912,-1.98966250706796,-1.05930258229966,2.03621697292219,1.24425464314787,"good"
"290","201325940068_R08C01","yachida","NE048","EPIC","PanNET","primary",7.91159885887384,-1.74196410190981,-1.24108477863991,1.78022253437636,1.22777380510733,"good"
"291","201325940022_R01C01","yachida","NE049","EPIC","PanNET","primary",14.7573352479354,-4.94180667721469,-1.51839797144644,2.31995050249441,1.29635766020279,"good"
"292","201325940022_R02C01","yachida","NE050","EPIC","PanNET","primary",17.8930049280781,-8.86907234888863,-2.60225867018543,3.42211043054849,1.22745315118534,"good"
"293","201325940022_R03C01","yachida","NE051","EPIC","PanNEC","primary",-16.0441550369876,-6.08175621403882,1.65232929773655,-1.5967863165036,1.25650971600952,"good"
"294","202787550064_R03C01","yachida","NE052","EPIC","PanNEC","primary",-13.1321290743059,-5.1279951570633,1.47151489465627,-1.81415024138991,1.25986932192509,"good"
"295","202787550064_R05C01","yachida","NE054","EPIC","PanNET","primary",6.13137207117677,0.377429581617865,-1.23888446209968,0.964766807666089,1.17367771370015,"good"
"296","201325940022_R04C01","yachida","NE057","EPIC","PanNET","primary",0.142494517659536,8.57550178919744,-1.08254664391947,0.731028135031968,1.24570050929591,"good"
"297","201325940022_R05C01","yachida","NE058","EPIC","PanNET","primary",8.49921982546209,-1.74988679295277,-1.3355651512652,1.88326220713392,1.24109950466742,"good"
"298","201325940022_R06C01","yachida","NE059","EPIC","PanNET","primary",14.2654267079069,-5.17260678262494,-2.11468780936971,2.68259583657645,1.26125247137549,"good"
"299","201325940022_R07C01","yachida","NE060","EPIC","PanNET","primary",20.0651555873309,-10.3934714988258,-2.43734179382019,1.99276752480611,1.22861721866546,"good"
"300","201325940022_R08C01","yachida","NE061","EPIC","PanNEC","primary",-6.75467951974083,-1.04791477292668,0.729547187024343,-2.3918159034588,1.21487951805993,"good"
"301","201492560210_R01C01","yachida","NE062","EPIC","PanNEC","primary",-6.78645226267122,-1.35615784177396,1.44691952856555,-1.76969627903621,1.2105759789915,"good"
"302","203960200098_R05C01","yachida","NE105","EPIC","PanNET","primary",7.92732678656754,-2.69487841267492,-1.93754760912807,2.40802427672544,1.1251619202741,"good"
"303","203960200098_R07C01","yachida","NE109","EPIC","PanNET","primary",5.74376678582102,-2.17039648603628,1.20413521487124,-1.52073023639094,1.20248913777954,"good"
"304","203960200098_R08C01","yachida","NE110","EPIC","PanNEC","primary",-3.42317117423065,6.6979750004516,0.597845377066212,0.0409764661994945,1.18374597828604,"good"
